#For SF galaxies, QTime is the duration of the last period when they were quenched.
#obs_sm <FQ> AvgErr <QTime> AvgErr Median_QTime 1Sig+ 1Sig- <A_SM10> AvgErr Median_A_SM10 1Sig+ 1Sig- <A_SM50> AvgErr Median_A_SM50 1Sig+ 1Sig- <A_SM90> AvgErr Median_A_SM90 1Sig+ 1Sig- Counts
7.68099e+07 0.000638825 3.10876e-05 2.83113e+07 213341 0 0 0 0.412508 0.000129626 0.419455 0.0956143 0.115873 0.731783 7.9104e-05 0.736558 0.0579951 0.0674998 0.940486 3.02066e-05 0.943557 0.0198905 0.0255794 660588
1.56955e+08 0.000776478 5.80143e-05 4.40184e+07 460860 0 0 0 0.414974 0.000201626 0.421118 0.0864697 0.103229 0.72349 0.000128165 0.726748 0.0574652 0.0642878 0.93633 5.18721e-05 0.939084 0.0205298 0.0252862 230528
2.48828e+08 0.000943712 7.19236e-05 5.90522e+07 602971 0 0 0 0.420239 0.00021163 0.424818 0.081353 0.0926562 0.720122 0.000142674 0.72293 0.0574913 0.0633835 0.933753 6.0051e-05 0.936541 0.0209728 0.0255022 182259
3.94453e+08 0.0011932 9.11922e-05 8.08109e+07 819057 0 0 0 0.426585 0.000222357 0.429361 0.0767358 0.0831251 0.716415 0.000161196 0.718904 0.0580182 0.0631174 0.930572 6.99823e-05 0.933236 0.0214681 0.025278 143312
6.25415e+08 0.00169433 0.000122175 1.08217e+08 1.06574e+06 0 0 0 0.432162 0.000235293 0.433293 0.0731439 0.0765375 0.711833 0.00018242 0.714221 0.0581198 0.0636863 0.92654 8.30799e-05 0.929267 0.0224243 0.025711 113319
9.91138e+08 0.00198442 0.000149433 1.38863e+08 1.3768e+06 0 0 0 0.438583 0.00025474 0.438383 0.0716877 0.0718004 0.706956 0.000207906 0.708806 0.0588632 0.063134 0.921414 0.000100828 0.924587 0.0231668 0.0265545 88691
1.57151e+09 0.00265252 0.000193715 1.85906e+08 1.82213e+06 0 4.36846e+08 0 0.444052 0.000276789 0.44284 0.0703943 0.0685223 0.69985 0.000234724 0.701416 0.0598145 0.063383 0.914733 0.000124048 0.918685 0.0241628 0.0282882 70499
2.49162e+09 0.0034385 0.000246447 2.47165e+08 2.37868e+06 0 5.91894e+08 0 0.448145 0.00030284 0.446343 0.0702714 0.0669452 0.689833 0.000265155 0.690856 0.0607334 0.0629444 0.905735 0.000157455 0.911159 0.0257795 0.031908 56420
3.95388e+09 0.0048919 0.000326057 3.16277e+08 2.98383e+06 0 7.31699e+08 0 0.452171 0.000332383 0.449999 0.0691518 0.0660809 0.6771 0.000300757 0.677766 0.063017 0.064155 0.894268 0.000198746 0.901516 0.0275595 0.0382159 45790
6.26138e+09 0.00632525 0.000408711 4.06591e+08 3.81125e+06 0 9.41735e+08 0 0.451533 0.000358362 0.449703 0.067947 0.0645782 0.660237 0.000344658 0.65994 0.0659251 0.0653687 0.880973 0.000253419 0.89115 0.029802 0.0488969 37627
9.93326e+09 0.00915303 0.000536882 5.29549e+08 4.81949e+06 0 1.16825e+09 0 0.446043 0.000385882 0.445414 0.0658256 0.0649281 0.636823 0.000392858 0.636864 0.0682282 0.0679721 0.863958 0.000326486 0.877617 0.0338101 0.0625274 31465
1.57353e+10 0.0109987 0.000646795 6.71868e+08 6.10064e+06 3.48018e+08 1.07887e+09 3.48018e+08 0.434758 0.000421301 0.434827 0.064828 0.0651655 0.610126 0.000456149 0.609987 0.072186 0.0717615 0.844749 0.000418633 0.862181 0.0393587 0.0797766 26003
2.49188e+10 0.0159305 0.000858324 8.67114e+08 7.77495e+06 4.93943e+08 1.27593e+09 4.93943e+08 0.415487 0.000462227 0.416426 0.0637129 0.0660932 0.575472 0.000528947 0.574405 0.0769554 0.0731083 0.819922 0.000554853 0.8402 0.0510784 0.0982404 21280
3.92992e+10 0.0211379 0.00114436 1.08783e+09 1.03903e+07 6.92286e+08 1.495e+09 6.92286e+08 0.390565 0.000527691 0.393141 0.0611251 0.0666712 0.535998 0.000634533 0.535372 0.0784155 0.0757991 0.790822 0.000750422 0.812517 0.0656198 0.117273 15801
6.1618e+10 0.0268748 0.00160756 1.36878e+09 1.48202e+07 9.1326e+08 1.76195e+09 9.1326e+08 0.362481 0.000651358 0.364629 0.0621622 0.0683253 0.495129 0.000810057 0.492049 0.0818574 0.0760193 0.755372 0.00109553 0.777654 0.0864215 0.141481 10121
9.66233e+10 0.0404694 0.0028034 1.66205e+09 2.31554e+07 1.14952e+09 2.13093e+09 8.226e+08 0.33336 0.00089562 0.335951 0.0605428 0.0680823 0.45267 0.00112006 0.448693 0.0764408 0.0729402 0.712993 0.00173811 0.724917 0.118471 0.146564 4942
1.51348e+11 0.0542335 0.00532926 2.09848e+09 4.36474e+07 1.51297e+09 2.62005e+09 1.09651e+09 0.302085 0.00140689 0.304389 0.0570278 0.0649027 0.411483 0.00177204 0.408398 0.0723127 0.0708286 0.661101 0.0031035 0.664713 0.144813 0.149523 1807
2.37274e+11 0.082996 0.0124248 2.56951e+09 8.53791e+07 2.20847e+09 2.54162e+09 1.60252e+09 0.273527 0.00244625 0.271574 0.0569459 0.053125 0.375975 0.0028867 0.375053 0.057844 0.0604153 0.604 0.00578421 0.580318 0.182534 0.0991228 494
3.65963e+11 0.0921986 0.0244508 3.16678e+09 1.47712e+08 3.1599e+09 1.82058e+09 2.10512e+09 0.231599 0.00363557 0.230713 0.0444825 0.0436955 0.330601 0.00419621 0.328244 0.0536321 0.0459661 0.539287 0.00803063 0.523725 0.0917097 0.0700569 141
5.8642e+11 0.103448 0.0575533 3.37327e+09 2.76682e+08 3.42684e+09 1.30362e+09 1.41557e+09 0.199679 0.00491834 0.195127 0.0281276 0.0205379 0.301973 0.0104392 0.290999 0.04814 0.0219254 0.511511 0.0163008 0.49525 0.0507309 0.0529758 29
9.33904e+11 0.166667 0.166667 3.06065e+09 5.90388e+08 3.64403e+09 1.45807e+09 2.8149e+09 0.187491 0.0075223 0.200027 0.00402451 0.0371244 0.292234 0.0090149 0.304443 0.015 0.0382981 0.506731 0.0164295 0.5001 0.0592236 0.0458122 6
1.49327e+12 0 0 2.33871e+09 2.33871e+09 2.33871e+09 0 0 0.17917 0.17917 0.17917 0 0 0.267688 0.267688 0.267688 0 0 0.500193 0.500193 0.500193 0 0 1
