#For SF galaxies, QTime is the duration of the last period when they were quenched.
#obs_sm <FQ> AvgErr <QTime> AvgErr Median_QTime 1Sig+ 1Sig- <A_SM10> AvgErr Median_A_SM10 1Sig+ 1Sig- <A_SM50> AvgErr Median_A_SM50 1Sig+ 1Sig- <A_SM90> AvgErr Median_A_SM90 1Sig+ 1Sig- Counts
7.73136e+07 0.00687157 0.000102151 3.02543e+06 59759.8 0 0 0 0.215884 7.38137e-05 0.206288 0.0687854 0.0478392 0.36884 7.2144e-05 0.376156 0.0490538 0.0646536 0.474513 2.11549e-05 0.478356 0.0108012 0.0181339 653999
1.57244e+08 0.0136524 0.000235213 6.91684e+06 150992 0 0 0 0.222079 0.000123681 0.213429 0.0692208 0.0509641 0.378168 0.000108089 0.384366 0.045017 0.0575128 0.47612 3.20332e-05 0.479627 0.0100827 0.016816 243400
2.49103e+08 0.020404 0.000319548 1.14767e+07 220321 0 0 0 0.22924 0.000139812 0.221214 0.0698867 0.0527505 0.384241 0.000113221 0.38956 0.0428979 0.0532764 0.47706 3.48897e-05 0.480572 0.00961089 0.0161848 195746
3.94279e+08 0.0296966 0.000429857 1.93153e+07 327886 0 0 0 0.237002 0.000157646 0.229801 0.0696474 0.0546498 0.389661 0.000120012 0.394421 0.0410334 0.050155 0.477909 3.9312e-05 0.48157 0.00926143 0.0159921 155944
6.25113e+08 0.0425266 0.000575296 2.92685e+07 463133 0 0 0 0.245858 0.000178741 0.239488 0.069619 0.0563596 0.395285 0.000129105 0.399627 0.0396138 0.0481317 0.478805 4.49431e-05 0.482632 0.00888231 0.0156866 123029
9.90782e+08 0.0606101 0.00076447 4.55623e+07 668710 0 0 0 0.255548 0.000202543 0.250183 0.0690897 0.0586936 0.400754 0.000141254 0.40493 0.0387992 0.0466498 0.47969 5.27749e-05 0.48401 0.00829685 0.0159128 97426
1.5715e+09 0.080557 0.000977233 6.80725e+07 944610 0 0 0 0.265258 0.000227656 0.26062 0.0686874 0.059378 0.407071 0.000153708 0.411818 0.036591 0.0459873 0.480558 6.30909e-05 0.485458 0.00764567 0.0160231 77560
2.49231e+09 0.107735 0.00123986 9.9263e+07 1.28336e+06 0 0 0 0.275249 0.000253569 0.271422 0.0680786 0.0603653 0.413389 0.00016694 0.418839 0.0345443 0.0451632 0.480985 7.66476e-05 0.486663 0.00701201 0.0162418 62533
3.95657e+09 0.139255 0.00152007 1.38969e+08 1.6904e+06 0 0 0 0.286504 0.000278298 0.283836 0.0664151 0.0619829 0.418517 0.000182029 0.424947 0.0326245 0.0451399 0.480622 9.48794e-05 0.48748 0.00673079 0.0178972 51876
6.28443e+09 0.176611 0.00180811 1.93916e+08 2.21683e+06 0 5.30876e+08 0 0.296338 0.000301466 0.293927 0.0671222 0.0620253 0.420933 0.000199848 0.428411 0.0312222 0.0451769 0.478656 0.000121097 0.487322 0.00693339 0.0220424 44482
9.97821e+09 0.225292 0.00206382 2.71154e+08 2.7644e+06 0 6.92559e+08 0 0.302654 0.000312543 0.301775 0.0658225 0.0637967 0.418493 0.000222166 0.427501 0.0312764 0.0482357 0.474507 0.000153303 0.485955 0.0077593 0.0297555 40978
1.58069e+10 0.278785 0.00229907 3.41132e+08 3.14808e+06 0 8.53413e+08 0 0.305107 0.000323031 0.305513 0.0633925 0.0652752 0.411866 0.000252489 0.422886 0.0331284 0.0561374 0.468181 0.000190345 0.483026 0.00974375 0.0415491 38040
2.50163e+10 0.341509 0.00252668 4.29228e+08 3.62787e+06 0 1.08023e+09 0 0.302578 0.000339282 0.304257 0.0631198 0.0685934 0.39982 0.000288623 0.411574 0.0379305 0.0640818 0.458863 0.000233443 0.47667 0.0141596 0.0552166 35226
3.94874e+10 0.41068 0.00280811 5.16449e+08 4.1734e+06 0 1.25149e+09 0 0.295518 0.000363117 0.297483 0.0631111 0.0695686 0.384217 0.000329213 0.395344 0.0443266 0.0703331 0.44652 0.000285663 0.465502 0.0219554 0.0673767 30693
6.21486e+10 0.484405 0.00328029 5.92772e+08 5.00859e+06 3.18959e+08 1.01138e+09 3.18959e+08 0.284318 0.000414301 0.285234 0.0643542 0.0685414 0.366659 0.000397885 0.375609 0.0514695 0.0739169 0.432551 0.000359776 0.449773 0.0326147 0.0744369 23212
9.72514e+10 0.562719 0.00428012 6.83557e+08 6.84368e+06 5.01501e+08 9.85711e+08 5.01501e+08 0.270784 0.00052702 0.270458 0.0642842 0.0654136 0.345886 0.000522267 0.351734 0.0566065 0.0716284 0.415615 0.000502245 0.42866 0.0453729 0.0770218 13433
1.52153e+11 0.642045 0.00649082 7.77037e+08 1.09084e+07 6.11817e+08 1.0311e+09 6.11817e+08 0.254332 0.000813738 0.253271 0.0646472 0.0642946 0.324158 0.000829172 0.326557 0.0633807 0.0701116 0.397267 0.000798234 0.402891 0.0590155 0.0689578 5456
2.3682e+11 0.73494 0.0114227 8.45924e+08 2.02243e+07 7.68719e+08 9.51584e+08 7.68719e+08 0.236532 0.00154949 0.22929 0.072821 0.0542869 0.302797 0.00156996 0.298837 0.0702764 0.0613486 0.3796 0.00148031 0.380619 0.0630461 0.0621454 1494
3.72207e+11 0.83004 0.0236605 8.55869e+08 4.37925e+07 7.11799e+08 8.53413e+08 7.11799e+08 0.21723 0.00345947 0.207049 0.0659974 0.0402045 0.280575 0.00355688 0.272867 0.068155 0.0487792 0.363336 0.00342764 0.3634 0.0586014 0.0580083 253
5.68821e+11 0.875 0.0689597 8.33391e+08 1.67635e+08 6.11817e+08 1.10849e+09 6.11817e+08 0.197792 0.0112619 0.18137 0.100154 0.0322164 0.261673 0.0111746 0.251059 0.0804263 0.0534003 0.351105 0.00994487 0.339055 0.0786937 0.0473079 24
8.38686e+11 1 0 6.84396e+08 4.03191e+08 1.17237e+09 3.9284e+08 1.17237e+09 0.165364 0.0118529 0.164376 0.0348142 0.0162928 0.221445 0.012909 0.229207 0.0232464 0.0377856 0.349389 0.0256946 0.385015 0.0082179 0.103408 4
