#For SF galaxies, QTime is the duration of the last period when they were quenched.
#mpeak <FQ> AvgErr <QTime> AvgErr Median_QTime 1Sig+ 1Sig- <A_SM10> AvgErr Median_A_SM10 1Sig+ 1Sig- <A_SM50> AvgErr Median_A_SM50 1Sig+ 1Sig- <A_SM90> AvgErr Median_A_SM90 1Sig+ 1Sig- Counts
7.92102e+09 0.000217099 6.40121e-06 395878 8193.92 0 0 0 0.326991 3.41643e-05 0.331919 0.0803735 0.0943125 0.39971 2.96754e-05 0.413799 0.0520732 0.0800098 0.472382 1.40705e-05 0.482406 0.012517 0.0302371 5297115
1.56336e+10 4.47275e-05 4.88006e-06 171254 7642.38 0 0 0 0.270256 5.50697e-05 0.263056 0.0885028 0.0722439 0.369062 5.23347e-05 0.381606 0.0567622 0.085423 0.46732 2.25239e-05 0.475946 0.014557 0.0305138 1878041
2.46846e+10 1.68234e-05 3.67114e-06 88319.9 7004.91 0 0 0 0.24427 6.48239e-05 0.231588 0.0893724 0.059616 0.357415 6.45876e-05 0.368261 0.0600776 0.0860247 0.467184 2.494e-05 0.47457 0.0147217 0.0287745 1248259
3.90833e+10 4.1775e-05 7.16421e-06 112806 9725.27 0 0 0 0.230566 7.76339e-05 0.216535 0.0871836 0.0537149 0.361869 7.50616e-05 0.370776 0.0577519 0.077594 0.470758 2.55041e-05 0.476592 0.0131998 0.0245012 813884
6.19743e+10 0.000105666 1.41194e-05 418801 23158.6 0 0 0 0.22896 9.45103e-05 0.21684 0.0834204 0.0553316 0.376676 8.14281e-05 0.383926 0.0503923 0.0653 0.474778 2.56263e-05 0.479372 0.0113898 0.0204839 529974
9.8369e+10 0.000358012 3.22751e-05 1.40356e+06 52495.6 0 0 0 0.238969 0.000117091 0.229949 0.0802622 0.0603535 0.390783 8.6486e-05 0.395885 0.0447113 0.054182 0.477404 2.78831e-05 0.481354 0.0102735 0.0181736 343564
1.55848e+11 0.000845811 6.16611e-05 4.87422e+06 126555 0 0 0 0.255999 0.000144089 0.250148 0.0766136 0.0642659 0.402126 9.48856e-05 0.406117 0.0405912 0.047664 0.479646 3.24077e-05 0.483481 0.00916529 0.0167325 222272
2.46789e+11 0.00211823 0.000121762 1.4813e+07 278944 0 0 0 0.276814 0.000174449 0.273951 0.0709917 0.0652709 0.414286 0.000106227 0.417996 0.0365297 0.0430732 0.482583 3.75995e-05 0.486382 0.00758323 0.0147929 142572
3.90827e+11 0.0049126 0.00023389 3.94527e+07 593154 0 0 0 0.303158 0.000213148 0.301945 0.066707 0.0639314 0.428464 0.000120148 0.433093 0.0305534 0.039207 0.48538 4.49707e-05 0.489177 0.00616241 0.0128657 89362
6.17875e+11 0.00990468 0.000427697 9.41158e+07 1.21265e+06 0 0 0 0.326355 0.000259059 0.326581 0.0616862 0.0612145 0.434582 0.000143605 0.438689 0.0286956 0.0357498 0.484773 6.57069e-05 0.489313 0.00625536 0.0140048 53611
9.77829e+11 0.018964 0.000772003 1.96368e+08 2.3304e+06 0 5.4793e+08 0 0.330994 0.000321786 0.332756 0.0568651 0.0597595 0.425897 0.000205987 0.429858 0.0329373 0.0395993 0.478496 0.000121445 0.485533 0.00879341 0.0222319 31217
1.54658e+12 0.0355408 0.00142497 3.61854e+08 4.34742e+06 0 9.06034e+08 0 0.318085 0.000430908 0.319297 0.0564846 0.0583954 0.406244 0.000329594 0.409867 0.041299 0.0473496 0.466515 0.000238893 0.477416 0.0139997 0.038872 16882
2.44003e+12 0.0652621 0.00271793 5.93614e+08 7.80382e+06 3.94214e+08 9.36128e+08 3.94214e+08 0.296209 0.000600313 0.296344 0.0551792 0.0563506 0.382071 0.000530156 0.383616 0.0501578 0.0501619 0.451294 0.000461896 0.466057 0.0217185 0.05939 8259
3.8565e+12 0.110163 0.00503549 9.10544e+08 1.41858e+07 7.14118e+08 1.16e+09 7.14118e+08 0.276334 0.000847934 0.276014 0.054332 0.0543526 0.359257 0.000876047 0.358976 0.0590404 0.0559716 0.436503 0.00085796 0.453372 0.0322039 0.0764209 3867
6.09754e+12 0.17125 0.00942113 1.27939e+09 2.50353e+07 1.10849e+09 1.28001e+09 1.10849e+09 0.25718 0.00132304 0.254996 0.0556273 0.0511036 0.339579 0.00153876 0.338551 0.0657541 0.0641441 0.42728 0.00155462 0.447093 0.0384042 0.0922228 1600
9.6767e+12 0.264586 0.0162596 1.66664e+09 4.04127e+07 1.56521e+09 1.34423e+09 1.03434e+09 0.2399 0.00184885 0.238228 0.0522679 0.0497207 0.325885 0.00253153 0.316289 0.0861787 0.0563079 0.418044 0.00253675 0.438451 0.046941 0.105115 737
1.53676e+13 0.396429 0.029285 2.13399e+09 6.99109e+07 2.30129e+09 1.093e+09 1.57804e+09 0.22667 0.00285272 0.221574 0.0507817 0.0371419 0.320308 0.00452548 0.306025 0.106078 0.0637035 0.409304 0.00449127 0.433998 0.0514121 0.115699 280
2.41512e+13 0.474138 0.0465628 2.45527e+09 1.11323e+08 2.54895e+09 1.24021e+09 1.61544e+09 0.212088 0.00451996 0.210576 0.0495784 0.047263 0.312611 0.00695505 0.301489 0.095193 0.065042 0.416233 0.00612388 0.430955 0.0533592 0.0818219 116
3.7513e+13 0.619048 0.0616739 2.85753e+09 1.32746e+08 2.9653e+09 1.07531e+09 1.09119e+09 0.209048 0.006698 0.203434 0.070177 0.0460404 0.319318 0.011273 0.309065 0.118882 0.088296 0.429246 0.00771926 0.441646 0.0421009 0.0777264 63
6.12928e+13 0.608696 0.104051 3.30434e+09 1.87771e+08 3.65981e+09 4.42101e+08 1.49621e+09 0.199321 0.00919619 0.178569 0.0534135 0.01228 0.3283 0.0165255 0.326414 0.100233 0.0959168 0.441056 0.0113763 0.455142 0.0196018 0.0381464 23
9.36709e+13 0.6875 0.119678 3.53337e+09 3.18467e+08 4.10191e+09 4.66638e+08 1.92427e+09 0.192983 0.0100214 0.183134 0.0478109 0.0245402 0.327023 0.0249116 0.353465 0.0607783 0.161477 0.414196 0.0165988 0.438095 0.0507356 0.0989823 16
1.36788e+14 0.25 0.25 3.66037e+09 3.9043e+08 4.1188e+09 4.37519e+07 1.6116e+09 0.240536 0.0539377 0.233628 0.161478 0.0728323 0.392286 0.0206544 0.399617 0.0386591 0.06164 0.444248 0.0231079 0.472098 0.0158306 0.0877584 4
