#For SF galaxies, QTime is the duration of the last period when they were quenched.
#obs_sm <FQ> AvgErr <QTime> AvgErr Median_QTime 1Sig+ 1Sig- <A_SM10> AvgErr Median_A_SM10 1Sig+ 1Sig- <A_SM50> AvgErr Median_A_SM50 1Sig+ 1Sig- <A_SM90> AvgErr Median_A_SM90 1Sig+ 1Sig- Counts
7.86228e+07 0.0149571 0.000267834 6.99764e+06 163409 0 0 0 0.205658 0.000138183 0.193558 0.0725575 0.0464522 0.345241 0.000148697 0.353816 0.0580585 0.0783241 0.466913 5.66827e-05 0.473737 0.013351 0.0261516 205387
1.57295e+08 0.0267917 0.000559949 1.38378e+07 369826 0 0 0 0.210134 0.000221431 0.199008 0.0736892 0.0500243 0.354069 0.000218819 0.362403 0.0530254 0.0712719 0.468726 8.16429e-05 0.475074 0.0125218 0.0248445 83160
2.49013e+08 0.0385428 0.000742468 2.35098e+07 543037 0 0 0 0.21587 0.000246297 0.205948 0.0735864 0.0520095 0.361232 0.000228945 0.369141 0.0493791 0.0669573 0.469867 8.89616e-05 0.476257 0.0118453 0.0241078 67224
3.93896e+08 0.0554516 0.000994779 3.81747e+07 800726 0 0 0 0.22192 0.000276756 0.213304 0.0720372 0.0539694 0.367372 0.000243026 0.374475 0.0468808 0.0616556 0.470708 0.00010103 0.477387 0.0113999 0.0240414 52929
6.24448e+08 0.0762753 0.00130577 5.83226e+07 1.14513e+06 0 0 0 0.229145 0.000311479 0.221437 0.0710075 0.0550214 0.374088 0.000261154 0.380449 0.0453273 0.0584201 0.471675 0.000115713 0.478812 0.0108975 0.0246387 41324
9.89998e+08 0.109775 0.00174035 8.8073e+07 1.63765e+06 0 0 0 0.236864 0.000353007 0.23087 0.0693893 0.0578373 0.380475 0.000289092 0.386722 0.0443792 0.0567186 0.47237 0.000138445 0.480236 0.0104355 0.0257061 32266
1.57183e+09 0.140628 0.00219052 1.3291e+08 2.35086e+06 0 0 0 0.244642 0.000395481 0.239013 0.0685254 0.0576662 0.388044 0.000319091 0.394961 0.042652 0.0562812 0.473044 0.000169396 0.48218 0.0096072 0.0273024 25187
2.49084e+09 0.180509 0.00270591 1.85403e+08 3.146e+06 0 4.76928e+08 0 0.254197 0.000441297 0.250313 0.06609 0.0595611 0.395556 0.000350735 0.403644 0.0395417 0.0567975 0.473174 0.000205064 0.483586 0.00886914 0.0292623 20204
3.95352e+09 0.228561 0.00330665 2.56789e+08 4.18144e+06 0 6.92559e+08 0 0.263006 0.000497083 0.259477 0.066338 0.0609785 0.400612 0.00039326 0.409867 0.0377687 0.057434 0.471617 0.000255882 0.483973 0.00889447 0.0345841 16127
6.28088e+09 0.274108 0.00384938 3.49077e+08 5.55316e+06 0 8.53413e+08 0 0.272431 0.000547876 0.268997 0.0671156 0.0608054 0.40352 0.000439485 0.413916 0.0363958 0.0581701 0.468108 0.000323481 0.483118 0.00979415 0.0411267 13429
9.96429e+09 0.345148 0.00437286 4.83868e+08 7.02089e+06 0 1.17237e+09 0 0.277454 0.000580455 0.275354 0.0660201 0.0618188 0.399148 0.000493611 0.411162 0.0375058 0.0636797 0.460533 0.000410212 0.479255 0.0126847 0.0559238 11821
1.57525e+10 0.398725 0.00477608 5.8937e+08 8.15265e+06 0 1.39919e+09 0 0.282918 0.000611906 0.281936 0.0635197 0.0640522 0.39308 0.000549217 0.405331 0.0401992 0.0685587 0.451398 0.000494162 0.472552 0.0179601 0.0688057 10511
2.49511e+10 0.470563 0.00521204 7.37712e+08 9.73586e+06 4.49746e+08 1.19317e+09 4.49746e+08 0.282869 0.000666995 0.281409 0.0670606 0.0643879 0.380875 0.000632358 0.393632 0.0453117 0.0745565 0.438883 0.000601582 0.460202 0.0273914 0.0777615 9172
3.94792e+10 0.539719 0.00576912 9.03997e+08 1.16816e+07 6.11817e+08 1.33871e+09 6.11817e+08 0.278105 0.000716382 0.278216 0.0630761 0.0647481 0.364414 0.000717283 0.373541 0.0535378 0.0750674 0.421992 0.00072613 0.4393 0.0425199 0.0843872 7465
6.2012e+10 0.611695 0.00686225 1.03966e+09 1.49032e+07 7.73094e+08 1.40454e+09 7.73094e+08 0.271411 0.000856989 0.269792 0.0651903 0.0628578 0.349217 0.000885474 0.355883 0.0581436 0.0736822 0.407409 0.000923501 0.420443 0.0537297 0.0845062 5045
9.69922e+10 0.65516 0.00915935 1.16306e+09 2.13841e+07 8.53413e+08 1.54798e+09 8.53413e+08 0.263985 0.00113774 0.261827 0.0625762 0.0598336 0.334567 0.00118645 0.339068 0.0580422 0.0701158 0.393869 0.00127877 0.402508 0.0611145 0.0805965 2694
1.51368e+11 0.69802 0.0144536 1.30192e+09 3.63801e+07 1.093e+09 1.52893e+09 1.093e+09 0.257265 0.00176457 0.255215 0.0636641 0.0574014 0.323218 0.0018502 0.324982 0.0603487 0.0648225 0.38264 0.00205739 0.388617 0.065743 0.0773589 1010
2.35873e+11 0.683673 0.0333023 1.42078e+09 8.99093e+07 1.093e+09 1.67358e+09 1.093e+09 0.249222 0.00404792 0.242395 0.0648399 0.049731 0.318329 0.00418105 0.318396 0.0613413 0.0558033 0.383339 0.00430478 0.388993 0.0543306 0.0759488 196
3.70311e+11 0.736842 0.103791 1.59633e+09 3.25432e+08 1.17237e+09 2.01714e+09 1.17237e+09 0.253034 0.0134338 0.238573 0.0677264 0.0286365 0.315224 0.0150224 0.313648 0.0738494 0.0614921 0.375541 0.0181466 0.353187 0.110673 0.0533472 19
5.70092e+11 0.5 0.5 1.79713e+09 1.79713e+09 3.59426e+09 0 3.59426e+09 0.283033 0.000893727 0.283927 0 0.00178745 0.304844 0.0123233 0.317168 0 0.0246467 0.40809 0.0100842 0.418174 0 0.0201683 2
