#For SF galaxies, QTime is the duration of the last period when they were quenched.
#sm <FQ> AvgErr <QTime> AvgErr Median_QTime 1Sig+ 1Sig- <A_SM10> AvgErr Median_A_SM10 1Sig+ 1Sig- <A_SM50> AvgErr Median_A_SM50 1Sig+ 1Sig- <A_SM90> AvgErr Median_A_SM90 1Sig+ 1Sig- Counts
7.67756e+07 0.00312156 8.33865e-05 1.25853e+06 45684 0 0 0 0.22443 0.000101367 0.212916 0.0820051 0.055379 0.374862 9.16891e-05 0.383402 0.0502011 0.0673605 0.473958 3.05279e-05 0.479021 0.0114478 0.0210739 447532
1.57156e+08 0.00642856 0.000199759 3.34842e+06 125968 0 0 0 0.234235 0.00017181 0.225126 0.0812867 0.0605759 0.386643 0.000133071 0.392784 0.0451865 0.0567994 0.476152 4.41136e-05 0.480506 0.0105987 0.0191654 160067
2.49008e+08 0.0108285 0.000289076 5.95369e+06 191725 0 0 0 0.242908 0.000192188 0.235236 0.0797523 0.0627653 0.392794 0.000136808 0.397866 0.0428054 0.0522234 0.477222 4.74075e-05 0.481448 0.0101568 0.0184204 128180
3.94668e+08 0.0160051 0.000391685 1.04254e+07 289328 0 0 0 0.251787 0.000212985 0.24574 0.0774223 0.0643594 0.398237 0.000144075 0.402701 0.0411474 0.0492833 0.478188 5.19463e-05 0.482494 0.0095543 0.017949 102655
6.25231e+08 0.0257432 0.000552779 1.74188e+07 417509 0 0 0 0.260557 0.000235969 0.256096 0.0744708 0.0655358 0.403302 0.000152129 0.407016 0.0393883 0.046112 0.479119 5.82231e-05 0.483554 0.00915614 0.0177193 82080
9.90719e+08 0.0375713 0.000746495 2.82734e+07 621057 0 0 0 0.270474 0.000260211 0.267159 0.0719708 0.0653194 0.408659 0.000165175 0.412416 0.0380555 0.0449761 0.480157 6.68792e-05 0.484911 0.00848761 0.0173301 64890
1.57164e+09 0.0499923 0.000956722 4.43022e+07 883765 0 0 0 0.280878 0.00029008 0.277993 0.0715035 0.0651853 0.414896 0.000178103 0.41873 0.0366929 0.0433418 0.481413 7.49376e-05 0.486407 0.0077101 0.016961 51888
2.49315e+09 0.0740997 0.00127877 7.1743e+07 1.33241e+06 0 0 0 0.291361 0.000316977 0.288965 0.0695557 0.0640646 0.420879 0.000191643 0.425669 0.033499 0.0429323 0.481922 9.01306e-05 0.487572 0.00709048 0.0169706 41957
3.95507e+09 0.0958021 0.00156119 1.04781e+08 1.75397e+06 0 0 0 0.302185 0.000336128 0.300198 0.0666451 0.0623079 0.426065 0.000202078 0.431311 0.0319063 0.041667 0.482032 0.000104252 0.488365 0.00672394 0.0179797 35542
6.28375e+09 0.13169 0.00192828 1.61332e+08 2.43695e+06 0 3.81991e+08 0 0.311891 0.000357854 0.310685 0.0663428 0.0629138 0.427847 0.000219382 0.434008 0.0303511 0.0415303 0.480175 0.00013249 0.488169 0.00681689 0.0213338 30754
9.97956e+09 0.175804 0.00224732 2.4803e+08 3.25294e+06 0 6.11817e+08 0 0.318108 0.000366346 0.317598 0.0649506 0.0626342 0.425649 0.000243186 0.433005 0.0305854 0.044044 0.476243 0.00017232 0.486983 0.00753084 0.0281914 28691
1.58256e+10 0.223515 0.00251197 3.51287e+08 4.01395e+06 0 8.54214e+08 0 0.319028 0.000372255 0.321171 0.0605781 0.0658722 0.41851 0.000276606 0.428207 0.0318813 0.0503205 0.470333 0.000210247 0.483935 0.00955978 0.0383396 27506
2.5066e+10 0.294258 0.00278446 4.91506e+08 4.77387e+06 0 1.17237e+09 0 0.313991 0.000382954 0.316685 0.0617606 0.0674092 0.405517 0.00031372 0.415978 0.0368432 0.0587921 0.46065 0.000259102 0.477905 0.0135832 0.0528396 26786
3.96315e+10 0.368005 0.0030868 6.23196e+08 5.56448e+06 0 1.40892e+09 0 0.305358 0.00039864 0.308625 0.0605578 0.0683444 0.389329 0.000351056 0.399388 0.0424942 0.0644986 0.448398 0.000308086 0.466185 0.0217073 0.0639488 24410
6.21767e+10 0.462909 0.00363098 8.3031e+08 7.3164e+06 5.30876e+08 1.34324e+09 5.30876e+08 0.290587 0.000447465 0.292839 0.0610458 0.068044 0.369152 0.000424147 0.377237 0.0496926 0.0687291 0.433361 0.000397691 0.450173 0.0324671 0.0725113 18859
9.68413e+10 0.563922 0.00480819 1.09556e+09 1.12741e+07 7.73094e+08 1.63178e+09 7.73094e+08 0.27256 0.000572007 0.273854 0.0602899 0.0640296 0.348242 0.000595589 0.352818 0.0569528 0.0696835 0.419195 0.000572506 0.432962 0.0434679 0.0758356 10638
1.51325e+11 0.69322 0.00740534 1.55042e+09 2.11208e+07 1.33034e+09 1.84699e+09 1.33034e+09 0.25428 0.000924183 0.253366 0.0608157 0.0601282 0.334024 0.00106168 0.333666 0.0687259 0.0687382 0.413619 0.00100355 0.427228 0.0493893 0.08123 3879
2.351e+11 0.82971 0.0130709 2.22823e+09 4.88173e+07 2.3272e+09 1.52574e+09 1.79489e+09 0.230739 0.001793 0.22777 0.056794 0.0518578 0.340223 0.0026203 0.336431 0.0870754 0.0751522 0.426281 0.00211721 0.443761 0.0407665 0.0856775 828
3.69743e+11 0.892157 0.0308643 3.091e+09 1.22122e+08 3.4615e+09 7.01053e+08 1.81858e+09 0.21629 0.00491618 0.200873 0.0590667 0.0283253 0.36315 0.00792146 0.374167 0.0693343 0.10348 0.440522 0.00567566 0.459423 0.0324156 0.0733345 102
5.55885e+11 1 0 4.39306e+09 2.30509e+08 4.62357e+09 0 4.61019e+08 0.252547 0.0967799 0.349327 0 0.19356 0.420054 0.0249102 0.444964 0 0.0498205 0.468492 0.0016208 0.470113 0 0.0032416 2
